0.000 0.004
0.011 0.000
0.023 0.005
0.034 0.012
0.045 0.008
0.056 0.005
0.068 0.000
0.079 0.007
0.090 0.015
0.101 0.003
0.113 0.004
0.124 0.002
0.135 0.001
0.146 0.009
0.158 0.017
0.169 0.015
0.180 0.003
0.191 0.000
0.203 0.007
0.214 0.013
0.225 0.010
0.236 0.003
0.248 0.012
0.259 0.000
0.270 0.014
0.281 0.009
0.293 0.013
0.304 0.004
0.315 0.001
0.326 0.000
0.338 0.024
0.349 0.008
0.360 0.010
0.371 0.010
0.383 0.015
0.394 0.010
0.405 0.008
0.416 0.005
0.428 0.009
0.439 0.011
0.450 0.007
0.461 0.009
0.473 0.000
0.484 0.013
0.495 0.008
0.506 0.015
0.518 0.000
0.529 0.000
0.540 0.000
0.551 0.009
0.563 0.005
0.574 0.007
0.585 0.015
0.596 0.004
0.608 0.017
0.619 0.003
0.630 0.009
0.641 0.013
0.653 0.013
0.664 0.003
0.675 0.000
0.686 0.011
0.698 0.000
0.709 0.007
0.720 0.000
0.731 0.012
0.743 0.000
0.754 0.009
0.765 0.005
0.776 0.020
0.788 0.018
0.799 0.000
0.810 0.008
0.821 0.001
0.833 0.006
0.844 0.008
0.855 0.011
0.866 0.029
0.878 0.000
0.889 0.000
0.900 0.014
0.911 0.010
0.923 0.004
0.934 0.026
0.945 0.003
0.956 0.002
0.968 0.009
0.979 0.000
0.990 0.000
1.002 0.000
1.013 0.011
1.024 0.003
1.035 0.000
1.047 0.007
1.058 0.006
1.069 0.007
1.080 0.004
1.092 0.002
1.103 0.005
1.114 0.007
1.125 0.000
1.137 0.017
1.148 0.015
1.159 0.010
1.170 0.003
1.182 0.010
1.193 0.000
1.204 0.005
1.215 0.008
1.227 0.000
1.238 0.007
1.249 0.000
1.260 0.007
1.272 0.000
1.283 0.000
1.294 0.001
1.305 0.001
1.317 0.006
1.328 0.010
1.339 0.000
1.350 0.015
1.362 0.002
1.373 0.008
1.384 0.000
1.395 0.000
1.407 0.007
1.418 0.003
1.429 0.005
1.440 0.018
1.452 0.009
1.463 0.004
1.474 0.009
1.485 0.005
1.497 0.002
1.508 0.003
1.519 0.003
1.530 0.000
1.542 0.007
1.553 0.015
1.564 0.015
1.575 0.011
1.587 0.000
1.598 0.011
1.609 0.023
1.620 0.011
1.632 0.000
1.643 0.004
1.654 0.011
1.665 0.003
1.677 0.000
1.688 0.015
1.699 0.000
1.710 0.000
1.722 0.008
1.733 0.008
1.744 0.012
1.755 0.014
1.767 0.000
1.778 0.002
1.789 0.000
1.800 0.004
1.812 0.000
1.823 0.016
1.834 0.016
1.845 0.015
1.857 0.005
1.868 0.000
1.879 0.000
1.890 0.004
1.902 0.007
1.913 0.000
1.924 0.003
1.935 0.015
1.947 0.022
1.958 0.004
1.969 0.006
1.980 0.003
1.992 0.000
2.003 0.007
2.014 0.010
2.026 0.012
2.037 0.000
2.048 0.005
2.059 0.000
2.071 0.000
2.082 0.005
2.093 0.006
2.104 0.011
2.116 0.017
2.127 0.016
2.138 0.004
2.149 0.000
2.161 0.013
2.172 0.008
2.183 0.009
2.194 0.008
2.206 0.000
2.217 0.001
2.228 0.015
2.239 0.010
2.251 0.000
2.262 0.000
2.273 0.007
2.284 0.017
2.296 0.000
2.307 0.000
2.318 0.005
2.329 0.017
2.341 0.006
2.352 0.002
2.363 0.000
2.374 0.017
2.386 0.004
2.397 0.000
2.408 0.017
2.419 0.000
2.431 0.007
2.442 0.009
2.453 0.000
2.464 0.016
2.476 0.000
2.487 0.000
2.498 0.018
2.509 0.001
2.521 0.000
2.532 0.012
2.543 0.007
2.554 0.003
2.566 0.000
2.577 0.006
2.588 0.002
2.599 0.009
2.611 0.005
2.622 0.000
2.633 0.013
2.644 0.000
2.656 0.013
2.667 0.019
2.678 0.004
2.689 0.010
2.701 0.000
2.712 0.002
2.723 0.002
2.734 0.004
2.746 0.012
2.757 0.005
2.768 0.002
2.779 0.006
2.791 0.003
2.802 0.002
2.813 0.005
2.824 0.000
2.836 0.014
2.847 0.001
2.858 0.001
2.869 0.000
2.881 0.011
2.892 0.000
2.903 0.012
2.914 0.009
2.926 0.004
2.937 0.003
2.948 0.019
2.959 0.000
2.971 0.000
2.982 0.015
2.993 0.004
3.005 0.000
3.016 0.016
3.027 0.003
3.038 0.009
3.050 0.008
3.061 0.005
3.072 0.013
3.083 0.000
3.095 0.000
3.106 0.000
3.117 0.011
3.128 0.011
3.140 0.006
3.151 0.000
3.162 0.018
3.173 0.014
3.185 0.005
3.196 0.011
3.207 0.007
3.218 0.006
3.230 0.008
3.241 0.001
3.252 0.005
3.263 0.015
3.275 0.002
3.286 0.001
3.297 0.008
3.308 0.000
3.320 0.009
3.331 0.017
3.342 0.013
3.353 0.011
3.365 0.000
3.376 0.000
3.387 0.007
3.398 0.006
3.410 0.006
3.421 0.003
3.432 0.014
3.443 0.000
3.455 0.012
3.466 0.005
3.477 0.004
3.488 0.000
3.500 0.000
3.511 0.005
3.522 0.006
3.533 0.002
3.545 0.011
3.556 0.000
3.567 0.010
3.578 0.011
3.590 0.010
3.601 0.000
3.612 0.000
3.623 0.000
3.635 0.021
3.646 0.009
3.657 0.004
3.668 0.002
3.680 0.004
3.691 0.006
3.702 0.001
3.713 0.006
3.725 0.011
3.736 0.000
3.747 0.008
3.758 0.009
3.770 0.008
3.781 0.008
3.792 0.000
3.803 0.014
3.815 0.000
3.826 0.005
3.837 0.004
3.848 0.015
3.860 0.007
3.871 0.000
3.882 0.002
3.893 0.000
3.905 0.009
3.916 0.024
3.927 0.000
3.938 0.005
3.950 0.013
3.961 0.014
3.972 0.000
3.983 0.019
3.995 0.002
4.006 0.001
4.017 0.000
4.029 0.006
4.040 0.018
4.051 0.003
4.062 0.001
4.074 0.006
4.085 0.003
4.096 0.005
4.107 0.000
4.119 0.011
4.130 0.000
4.141 0.000
4.152 0.003
4.164 0.010
4.175 0.008
4.186 0.004
4.197 0.012
4.209 0.009
4.220 0.000
4.231 0.000
4.242 0.000
4.254 0.000
4.265 0.008
4.276 0.013
4.287 0.000
4.299 0.000
4.310 0.009
4.321 0.004
4.332 0.002
4.344 0.005
4.355 0.003
4.366 0.008
4.377 0.002
4.389 0.003
4.400 0.020
4.411 0.013
4.422 0.015
4.434 0.010
4.445 0.015
4.456 0.007
4.467 0.000
4.479 0.005
4.490 0.001
4.501 0.001
4.512 0.003
4.524 0.000
4.535 0.009
4.546 0.000
4.557 0.000
4.569 0.006
4.580 0.000
4.591 0.014
4.602 0.008
4.614 0.000
4.625 0.000
4.636 0.004
4.647 0.004
4.659 0.012
4.670 0.004
4.681 0.005
4.692 0.024
4.704 0.024
4.715 0.009
4.726 0.002
4.737 0.000
4.749 0.018
4.760 0.000
4.771 0.000
4.782 0.000
4.794 0.008
4.805 0.000
4.816 0.012
4.827 0.007
4.839 0.005
4.850 0.020
4.861 0.000
4.872 0.003
4.884 0.001
4.895 0.002
4.906 0.009
4.917 0.000
4.929 0.012
4.940 0.017
4.951 0.008
4.962 0.000
4.974 0.000
4.985 0.013
4.996 0.008
5.008 0.000
5.019 0.008
5.030 0.002
5.041 0.015
5.053 0.000
5.064 0.000
5.075 0.009
5.086 0.008
5.098 0.004
5.109 0.003
5.120 0.008
5.131 0.012
5.143 0.000
5.154 0.002
5.165 0.008
5.176 0.000
5.188 0.011
5.199 0.000
5.210 0.000
5.221 0.005
5.233 0.004
5.244 0.027
5.255 0.005
5.266 0.006
5.278 0.008
5.289 0.009
5.300 0.015
5.311 0.000
5.323 0.012
5.334 0.002
5.345 0.000
5.356 0.000
5.368 0.002
5.379 0.015
5.390 0.015
5.401 0.000
5.413 0.000
5.424 0.008
5.435 0.007
5.446 0.000
5.458 0.009
5.469 0.000
5.480 0.000
5.491 0.004
5.503 0.008
5.514 0.000
5.525 0.007
5.536 0.000
5.548 0.017
5.559 0.015
5.570 0.002
5.581 0.019
5.593 0.007
5.604 0.005
5.615 0.003
5.626 0.000
5.638 0.000
5.649 0.004
5.660 0.013
5.671 0.011
5.683 0.006
5.694 0.014
5.705 0.006
5.716 0.010
5.728 0.000
5.739 0.002
5.750 0.011
5.761 0.008
5.773 0.000
5.784 0.013
5.795 0.007
5.806 0.002
5.818 0.013
5.829 0.010
5.840 0.006
5.851 0.009
5.863 0.016
5.874 0.002
5.885 0.012
5.896 0.005
5.908 0.002
5.919 0.000
5.930 0.000
5.941 0.017
5.953 0.017
5.964 0.006
5.975 0.002
5.986 0.009
5.998 0.006
6.009 0.013
6.020 0.000
6.032 0.007
6.043 0.017
6.054 0.000
6.065 0.000
6.077 0.009
6.088 0.000
6.099 0.000
6.110 0.000
6.122 0.020
6.133 0.003
6.144 0.010
6.155 0.000
6.167 0.000
6.178 0.011
6.189 0.006
6.200 0.000
6.212 0.006
6.223 0.002
6.234 0.011
6.245 0.000
6.257 0.014
6.268 0.000
6.279 0.005
6.290 0.007
6.302 0.002
6.313 0.007
6.324 0.000
6.335 0.002
6.347 0.010
6.358 0.000
6.369 0.000
6.380 0.011
6.392 0.017
6.403 0.007
6.414 0.003
6.425 0.011
6.437 0.002
6.448 0.007
6.459 0.016
6.470 0.000
6.482 0.016
6.493 0.011
6.504 0.013
6.515 0.010
6.527 0.009
6.538 0.005
6.549 0.000
6.560 0.011
6.572 0.011
6.583 0.004
6.594 0.000
6.605 0.007
6.617 0.018
6.628 0.003
6.639 0.000
6.650 0.000
6.662 0.005
6.673 0.001
6.684 0.000
6.695 0.006
6.707 0.001
6.718 0.018
6.729 0.009
6.740 0.005
6.752 0.003
6.763 0.003
6.774 0.005
6.785 0.010
6.797 0.008
6.808 0.006
6.819 0.009
6.830 0.003
6.842 0.008
6.853 0.000
6.864 0.006
6.875 0.011
6.887 0.005
6.898 0.004
6.909 0.000
6.920 0.012
6.932 0.001
6.943 0.021
6.954 0.000
6.965 0.009
6.977 0.005
6.988 0.000
6.999 0.007
7.011 0.015
7.022 0.000
7.033 0.008
7.044 0.005
7.056 0.005
7.067 0.012
7.078 0.005
7.089 0.000
7.101 0.000
7.112 0.004
7.123 0.009
7.134 0.000
7.146 0.000
7.157 0.017
7.168 0.000
7.179 0.018
7.191 0.003
7.202 0.006
7.213 0.001
7.224 0.006
7.236 0.000
7.247 0.013
7.258 0.012
7.269 0.005
7.281 0.014
7.292 0.010
7.303 0.002
7.314 0.001
7.326 0.007
7.337 0.006
7.348 0.005
7.359 0.019
7.371 0.000
7.382 0.012
7.393 0.004
7.404 0.006
7.416 0.000
7.427 0.014
7.438 0.012
7.449 0.001
7.461 0.015
7.472 0.009
7.483 0.002
7.494 0.004
7.506 0.000
7.517 0.003
7.528 0.009
7.539 0.000
7.551 0.007
7.562 0.029
7.573 0.011
7.584 0.006
7.596 0.005
7.607 0.026
7.618 0.006
7.629 0.011
7.641 0.004
7.652 0.007
7.663 0.013
7.674 0.025
7.686 0.032
7.697 0.022
7.708 0.025
7.719 0.017
7.731 0.023
7.742 0.032
7.753 0.035
7.764 0.021
7.776 0.027
7.787 0.029
7.798 0.045
7.809 0.047
7.821 0.055
7.832 0.056
7.843 0.071
7.854 0.069
7.866 0.084
7.877 0.086
7.888 0.084
7.899 0.104
7.911 0.099
7.922 0.125
7.933 0.131
7.944 0.135
7.956 0.140
7.967 0.143
7.978 0.153
7.989 0.163
8.001 0.155
8.012 0.152
8.023 0.157
8.035 0.143
8.046 0.145
8.057 0.132
8.068 0.118
8.080 0.113
8.091 0.113
8.102 0.100
8.113 0.094
8.125 0.075
8.136 0.085
8.147 0.076
8.158 0.057
8.170 0.063
8.181 0.046
8.192 0.051
8.203 0.045
8.215 0.043
8.226 0.025
8.237 0.025
8.248 0.024
8.260 0.025
8.271 0.026
8.282 0.024
8.293 0.009
8.305 0.032
8.316 0.014
8.327 0.013
8.338 0.013
8.350 0.027
8.361 0.005
8.372 0.000
8.383 0.014
8.395 0.008
8.406 0.007
8.417 0.003
8.428 0.012
8.440 0.009
8.451 0.005
8.462 0.016
8.473 0.003
8.485 0.022
8.496 0.002
8.507 0.001
8.518 0.002
8.530 0.004
8.541 0.011
8.552 0.004
8.563 0.008
8.575 0.001
8.586 0.003
8.597 0.002
8.608 0.006
8.620 0.000
8.631 0.003
8.642 0.000
8.653 0.000
8.665 0.011
8.676 0.004
8.687 0.002
8.698 0.005
8.710 0.000
8.721 0.014
8.732 0.021
8.743 0.004
8.755 0.003
8.766 0.007
8.777 0.001
8.788 0.010
8.800 0.011
8.811 0.017
8.822 0.002
8.833 0.000
8.845 0.002
8.856 0.000
8.867 0.000
8.878 0.004
8.890 0.002
8.901 0.005
8.912 0.004
8.923 0.005
8.935 0.007
8.946 0.006
8.957 0.001
8.968 0.008
8.980 0.005
8.991 0.008
9.002 0.011
9.014 0.010
9.025 0.011
9.036 0.008
9.047 0.005
9.059 0.000
9.070 0.022
9.081 0.019
9.092 0.000
9.104 0.008
9.115 0.008
9.126 0.008
9.137 0.011
9.149 0.017
9.160 0.001
9.171 0.010
9.182 0.007
9.194 0.015
9.205 0.006
9.216 0.000
9.227 0.005
9.239 0.000
9.250 0.010
9.261 0.012
9.272 0.004
9.284 0.011
9.295 0.003
9.306 0.003
9.317 0.021
9.329 0.015
9.340 0.011
9.351 0.015
9.362 0.005
9.374 0.004
9.385 0.013
9.396 0.003
9.407 0.000
9.419 0.019
9.430 0.017
9.441 0.012
9.452 0.003
9.464 0.020
9.475 0.015
9.486 0.025
9.497 0.017
9.509 0.013
9.520 0.002
9.531 0.008
9.542 0.018
9.554 0.005
9.565 0.012
9.576 0.018
9.587 0.010
9.599 0.020
9.610 0.008
9.621 0.000
9.632 0.025
9.644 0.020
9.655 0.031
9.666 0.025
9.677 0.014
9.689 0.019
9.700 0.028
9.711 0.029
9.722 0.044
9.734 0.032
9.745 0.053
9.756 0.024
9.767 0.047
9.779 0.052
9.790 0.050
9.801 0.062
9.812 0.083
9.824 0.085
9.835 0.100
9.846 0.108
9.857 0.123
9.869 0.134
9.880 0.141
9.891 0.157
9.902 0.165
9.914 0.188
9.925 0.206
9.936 0.230
9.947 0.217
9.959 0.231
9.970 0.240
9.981 0.256
9.992 0.261
10.004 0.245
10.015 0.242
10.026 0.248
10.038 0.241
10.049 0.230
10.060 0.223
10.071 0.206
10.083 0.195
10.094 0.177
10.105 0.170
10.116 0.142
10.128 0.142
10.139 0.118
10.150 0.108
10.161 0.103
10.173 0.083
10.184 0.065
10.195 0.073
10.206 0.072
10.218 0.043
10.229 0.036
10.240 0.031
10.251 0.032
10.263 0.036
10.274 0.024
10.285 0.025
10.296 0.012
10.308 0.021
10.319 0.025
10.330 0.009
10.341 0.024
10.353 0.016
10.364 0.017
10.375 0.006
10.386 0.017
10.398 0.018
10.409 0.009
10.420 0.018
10.431 0.026
10.443 0.014
10.454 0.016
10.465 0.008
10.476 0.009
10.488 0.018
10.499 0.014
10.510 0.010
10.521 0.023
10.533 0.020
10.544 0.003
10.555 0.012
10.566 0.006
10.578 0.012
10.589 0.017
10.600 0.004
10.611 0.017
10.623 0.008
10.634 0.000
10.645 0.007
10.656 0.000
10.668 0.012
10.679 0.008
10.690 0.017
10.701 0.014
10.713 0.001
10.724 0.008
10.735 0.009
10.746 0.014
10.758 0.000
10.769 0.000
10.780 0.008
10.791 0.001
10.803 0.009
10.814 0.005
10.825 0.002
10.836 0.004
10.848 0.013
10.859 0.004
10.870 0.009
10.881 0.000
10.893 0.000
10.904 0.017
10.915 0.007
10.926 0.006
10.938 0.005
10.949 0.014
10.960 0.003
10.971 0.004
10.983 0.009
10.994 0.017
11.005 0.010
11.017 0.000
11.028 0.000
11.039 0.000
11.050 0.005
11.062 0.001
11.073 0.004
11.084 0.010
11.095 0.000
11.107 0.013
11.118 0.003
11.129 0.000
11.140 0.000
11.152 0.010
11.163 0.000
11.174 0.019
11.185 0.009
11.197 0.000
11.208 0.003
11.219 0.014
11.230 0.018
11.242 0.002
11.253 0.008
11.264 0.003
11.275 0.018
11.287 0.013
11.298 0.008
11.309 0.005
11.320 0.004
11.332 0.000
11.343 0.001
11.354 0.000
11.365 0.000
11.377 0.004
11.388 0.000
11.399 0.001
11.410 0.012
11.422 0.004
11.433 0.010
11.444 0.002
11.455 0.008
11.467 0.008
11.478 0.023
11.489 0.016
11.500 0.000
11.512 0.007
11.523 0.013
11.534 0.000
11.545 0.008
11.557 0.010
11.568 0.007
11.579 0.000
11.590 0.000
11.602 0.009
11.613 0.001
11.624 0.006
11.635 0.007
11.647 0.003
11.658 0.010
11.669 0.001
11.680 0.000
11.692 0.000
11.703 0.007
11.714 0.010
11.725 0.002
11.737 0.005
11.748 0.010
11.759 0.005
11.770 0.006
11.782 0.012
11.793 0.012
11.804 0.003
11.815 0.000
11.827 0.000
11.838 0.015
11.849 0.013
11.860 0.000
11.872 0.005
11.883 0.000
11.894 0.004
11.905 0.006
11.917 0.002
11.928 0.003
11.939 0.007
11.950 0.001
11.962 0.014
11.973 0.000
11.984 0.000
11.995 0.003
12.007 0.008
12.018 0.024
12.029 0.002
12.041 0.008
12.052 0.000
12.063 0.000
12.074 0.002
12.086 0.007
12.097 0.016
12.108 0.002
12.119 0.006
12.131 0.015
12.142 0.000
12.153 0.000
12.164 0.001
12.176 0.006
12.187 0.001
12.198 0.005
12.209 0.001
12.221 0.019
12.232 0.003
12.243 0.005
12.254 0.000
12.266 0.007
12.277 0.007
12.288 0.000
12.299 0.010
12.311 0.017
12.322 0.003
12.333 0.003
12.344 0.012
12.356 0.015
12.367 0.005
12.378 0.007
12.389 0.008
12.401 0.007
12.412 0.012
12.423 0.006
12.434 0.000
12.446 0.007
12.457 0.000
12.468 0.001
12.479 0.001
12.491 0.008
12.502 0.010
12.513 0.002
12.524 0.010
12.536 0.013
12.547 0.010
12.558 0.013
12.569 0.002
12.581 0.010
12.592 0.019
12.603 0.016
12.614 0.009
12.626 0.011
12.637 0.013
12.648 0.003
12.659 0.001
12.671 0.010
12.682 0.007
12.693 0.021
12.704 0.001
12.716 0.004
12.727 0.002
12.738 0.000
12.749 0.000
12.761 0.000
12.772 0.004
12.783 0.001
12.794 0.004
12.806 0.016
12.817 0.008
12.828 0.000
12.839 0.000
12.851 0.010
12.862 0.003
12.873 0.000
12.884 0.000
12.896 0.007
12.907 0.005
12.918 0.001
12.929 0.009
12.941 0.009
12.952 0.008
12.963 0.004
12.974 0.000
12.986 0.008
12.997 0.014
13.008 0.013
13.020 0.010
13.031 0.015
13.042 0.001
13.053 0.000
13.065 0.011
13.076 0.005
13.087 0.000
13.098 0.000
13.110 0.002
13.121 0.001
13.132 0.001
13.143 0.001
13.155 0.000
13.166 0.001
13.177 0.000
13.188 0.001
13.200 0.016
13.211 0.015
13.222 0.003
13.233 0.008
13.245 0.008
13.256 0.005
13.267 0.003
13.278 0.004
13.290 0.000
13.301 0.017
13.312 0.013
13.323 0.011
13.335 0.014
13.346 0.013
13.357 0.004
13.368 0.017
13.380 0.012
13.391 0.004
13.402 0.000
13.413 0.004
13.425 0.001
13.436 0.012
13.447 0.021
13.458 0.006
13.470 0.000
13.481 0.014
13.492 0.006
13.503 0.000
13.515 0.021
13.526 0.008
13.537 0.013
13.548 0.002
13.560 0.016
13.571 0.011
13.582 0.026
13.593 0.002
13.605 0.007
13.616 0.011
13.627 0.010
13.638 0.007
13.650 0.011
13.661 0.018
13.672 0.020
13.683 0.010
13.695 0.021
13.706 0.023
13.717 0.018
13.728 0.021
13.740 0.032
13.751 0.032
13.762 0.034
13.773 0.037
13.785 0.046
13.796 0.048
13.807 0.048
13.818 0.050
13.830 0.064
13.841 0.070
13.852 0.090
13.863 0.105
13.875 0.113
13.886 0.120
13.897 0.125
13.908 0.147
13.920 0.151
13.931 0.174
13.942 0.168
13.953 0.181
13.965 0.197
13.976 0.200
13.987 0.202
13.998 0.199
14.010 0.192
14.021 0.196
14.032 0.195
14.044 0.191
14.055 0.181
14.066 0.166
14.077 0.154
14.089 0.149
14.100 0.133
14.111 0.119
14.122 0.115
14.134 0.101
14.145 0.094
14.156 0.083
14.167 0.070
14.179 0.058
14.190 0.071
14.201 0.058
14.212 0.057
14.224 0.045
14.235 0.036
14.246 0.046
14.257 0.036
14.269 0.013
14.280 0.031
14.291 0.025
14.302 0.024
14.314 0.023
14.325 0.013
14.336 0.011
14.347 0.000
14.359 0.019
14.370 0.019
14.381 0.016
14.392 0.015
14.404 0.018
14.415 0.009
14.426 0.000
14.437 0.028
14.449 0.014
14.460 0.013
14.471 0.010
14.482 0.000
14.494 0.018
14.505 0.014
14.516 0.011
14.527 0.008
14.539 0.008
14.550 0.012
14.561 0.015
14.572 0.018
14.584 0.021
14.595 0.016
14.606 0.008
14.617 0.008
14.629 0.012
14.640 0.002
14.651 0.000
14.662 0.010
14.674 0.012
14.685 0.015
14.696 0.012
14.707 0.003
14.719 0.003
14.730 0.014
14.741 0.000
14.752 0.000
14.764 0.000
14.775 0.010
14.786 0.003
14.797 0.021
14.809 0.002
14.820 0.000
14.831 0.003
14.842 0.011
14.854 0.012
14.865 0.019
14.876 0.000
14.887 0.008
14.899 0.006
14.910 0.000
14.921 0.006
14.932 0.008
14.944 0.001
14.955 0.002
14.966 0.018
14.977 0.011
14.989 0.003
15.000 0.002
15.011 0.000
15.023 0.004
15.034 0.009
15.045 0.000
15.056 0.001
15.068 0.000
15.079 0.007
15.090 0.007
15.101 0.003
15.113 0.000
15.124 0.003
15.135 0.000
15.146 0.009
15.158 0.001
15.169 0.000
15.180 0.011
15.191 0.000
15.203 0.003
15.214 0.002
15.225 0.000
15.236 0.003
15.248 0.014
15.259 0.009
15.270 0.006
15.281 0.014
15.293 0.011
15.304 0.007
15.315 0.020
15.326 0.001
15.338 0.012
15.349 0.003
15.360 0.008
15.371 0.000
15.383 0.005
15.394 0.000
15.405 0.000
15.416 0.009
15.428 0.000
15.439 0.000
15.450 0.000
15.461 0.012
15.473 0.009
15.484 0.000
15.495 0.015
15.506 0.000
15.518 0.002
15.529 0.000
15.540 0.005
15.551 0.007
15.563 0.000
15.574 0.002
15.585 0.003
15.596 0.012
15.608 0.004
15.619 0.007
15.630 0.010
15.641 0.001
15.653 0.005
15.664 0.008
15.675 0.004
15.686 0.020
15.698 0.000
15.709 0.007
15.720 0.004
15.731 0.005
15.743 0.012
15.754 0.010
15.765 0.000
15.776 0.012
15.788 0.001
15.799 0.009
15.810 0.014
15.821 0.000
15.833 0.003
15.844 0.009
15.855 0.010
15.866 0.010
15.878 0.005
15.889 0.008
15.900 0.008
15.911 0.002
15.923 0.000
15.934 0.005
15.945 0.002
15.956 0.000
15.968 0.012
15.979 0.000
15.990 0.001
16.002 0.011
16.013 0.013
16.024 0.006
16.035 0.016
16.047 0.005
16.058 0.004
16.069 0.012
16.080 0.000
16.092 0.002
16.103 0.000
16.114 0.001
16.125 0.000
16.137 0.003
16.148 0.000
16.159 0.002
16.170 0.015
16.182 0.008
16.193 0.010
16.204 0.003
16.215 0.000
16.227 0.000
16.238 0.009
16.249 0.000
16.260 0.002
16.272 0.009
16.283 0.003
16.294 0.000
16.305 0.002
16.317 0.011
16.328 0.009
16.339 0.000
16.350 0.000
16.362 0.006
16.373 0.009
16.384 0.001
16.395 0.002
16.407 0.002
16.418 0.000
16.429 0.003
16.440 0.002
16.452 0.011
16.463 0.006
16.474 0.000
16.485 0.000
16.497 0.004
16.508 0.005
16.519 0.000
16.530 0.014
16.542 0.013
16.553 0.003
16.564 0.010
16.575 0.015
16.587 0.000
16.598 0.000
16.609 0.000
16.620 0.005
16.632 0.000
16.643 0.000
16.654 0.006
16.665 0.000
16.677 0.000
16.688 0.004
16.699 0.000
16.710 0.002
16.722 0.000
16.733 0.006
16.744 0.003
16.755 0.007
16.767 0.012
16.778 0.003
16.789 0.005
16.800 0.010
16.812 0.003
16.823 0.002
16.834 0.006
16.845 0.009
16.857 0.000
16.868 0.002
16.879 0.008
16.890 0.010
16.902 0.003
16.913 0.005
16.924 0.011
16.935 0.008
16.947 0.014
16.958 0.005
16.969 0.003
16.980 0.006
16.992 0.002
17.003 0.006
17.014 0.001
17.026 0.010
17.037 0.014
17.048 0.000
17.059 0.009
17.071 0.004
17.082 0.009
17.093 0.000
17.104 0.005
17.116 0.008
17.127 0.016
17.138 0.000
17.149 0.000
17.161 0.000
17.172 0.005
17.183 0.009
17.194 0.007
17.206 0.000
17.217 0.000
17.228 0.000
17.239 0.004
17.251 0.000
17.262 0.000
17.273 0.005
17.284 0.010
17.296 0.007
17.307 0.001
17.318 0.006
17.329 0.004
17.341 0.006
17.352 0.000
17.363 0.005
17.374 0.003
17.386 0.001
17.397 0.004
17.408 0.003
17.419 0.000
17.431 0.003
17.442 0.001
17.453 0.007
17.464 0.000
17.476 0.007
17.487 0.000
17.498 0.012
17.509 0.004
17.521 0.004
17.532 0.002
17.543 0.003
17.554 0.000
17.566 0.010
17.577 0.005
17.588 0.001
17.599 0.003
17.611 0.016
17.622 0.011
17.633 0.000
17.644 0.010
17.656 0.000
17.667 0.000
17.678 0.019
17.689 0.003
17.701 0.017
17.712 0.000
17.723 0.000
17.734 0.000
17.746 0.000
17.757 0.015
17.768 0.011
17.779 0.013
17.791 0.016
17.802 0.006
17.813 0.010
17.824 0.001
17.836 0.021
17.847 0.015
17.858 0.008
17.869 0.000
17.881 0.000
17.892 0.011
17.903 0.009
17.914 0.019
17.926 0.005
17.937 0.001
17.948 0.004
17.959 0.000
17.971 0.004
17.982 0.015
17.993 0.010
18.005 0.003
18.016 0.012
18.027 0.008
18.038 0.007
18.050 0.011
18.061 0.017
18.072 0.000
18.083 0.007
18.095 0.000
18.106 0.012
18.117 0.010
18.128 0.013
18.140 0.007
18.151 0.004
18.162 0.008
18.173 0.002
18.185 0.020
18.196 0.020
18.207 0.015
18.218 0.000
18.230 0.006
18.241 0.001
18.252 0.010
18.263 0.021
18.275 0.006
18.286 0.016
18.297 0.017
18.308 0.000
18.320 0.017
18.331 0.000
18.342 0.017
18.353 0.007
18.365 0.010
18.376 0.005
18.387 0.013
18.398 0.015
18.410 0.026
18.421 0.022
18.432 0.002
18.443 0.008
18.455 0.008
18.466 0.006
18.477 0.008
18.488 0.010
18.500 0.015
18.511 0.016
18.522 0.012
18.533 0.020
18.545 0.022
18.556 0.014
18.567 0.020
18.578 0.014
18.590 0.016
18.601 0.030
18.612 0.025
18.623 0.025
18.635 0.019
18.646 0.031
18.657 0.034
18.668 0.029
18.680 0.038
18.691 0.039
18.702 0.040
18.713 0.048
18.725 0.042
18.736 0.052
18.747 0.060
18.758 0.063
18.770 0.077
18.781 0.084
18.792 0.090
18.803 0.120
18.815 0.112
18.826 0.134
18.837 0.167
18.848 0.193
18.860 0.198
18.871 0.214
18.882 0.227
18.893 0.249
18.905 0.286
18.916 0.305
18.927 0.338
18.938 0.349
18.950 0.363
18.961 0.373
18.972 0.386
18.983 0.395
18.995 0.401
19.006 0.401
19.017 0.397
19.029 0.389
19.040 0.377
19.051 0.348
19.062 0.339
19.074 0.320
19.085 0.302
19.096 0.274
19.107 0.249
19.119 0.231
19.130 0.206
19.141 0.193
19.152 0.167
19.164 0.146
19.175 0.141
19.186 0.114
19.197 0.101
19.209 0.087
19.220 0.079
19.231 0.081
19.242 0.058
19.254 0.054
19.265 0.041
19.276 0.039
19.287 0.040
19.299 0.033
19.310 0.025
19.321 0.034
19.332 0.037
19.344 0.026
19.355 0.035
19.366 0.021
19.377 0.033
19.389 0.029
19.400 0.036
19.411 0.015
19.422 0.016
19.434 0.020
19.445 0.017
19.456 0.012
19.467 0.014
19.479 0.026
19.490 0.012
19.501 0.009
19.512 0.019
19.524 0.020
19.535 0.024
19.546 0.009
19.557 0.012
19.569 0.022
19.580 0.010
19.591 0.017
19.602 0.016
19.614 0.012
19.625 0.027
19.636 0.019
19.647 0.020
19.659 0.019
19.670 0.017
19.681 0.010
19.692 0.017
19.704 0.007
19.715 0.007
19.726 0.020
19.737 0.009
19.749 0.011
19.760 0.017
19.771 0.015
19.782 0.013
19.794 0.011
19.805 0.012
19.816 0.021
19.827 0.010
19.839 0.012
19.850 0.012
19.861 0.006
19.872 0.001
19.884 0.008
19.895 0.015
19.906 0.009
19.917 0.010
19.929 0.000
19.940 0.009
19.951 0.009
19.962 0.010
19.974 0.007
19.985 0.019
19.996 0.007
20.008 0.000
20.019 0.013
20.030 0.010
20.041 0.016
20.053 0.011
20.064 0.003
20.075 0.017
20.086 0.008
20.098 0.010
20.109 0.004
20.120 0.011
20.131 0.015
20.143 0.009
20.154 0.009
20.165 0.003
20.176 0.014
20.188 0.009
20.199 0.004
20.210 0.027
20.221 0.010
20.233 0.019
20.244 0.011
20.255 0.008
20.266 0.021
20.278 0.011
20.289 0.019
20.300 0.013
20.311 0.022
20.323 0.010
20.334 0.025
20.345 0.011
20.356 0.017
20.368 0.004
20.379 0.019
20.390 0.013
20.401 0.026
20.413 0.011
20.424 0.023
20.435 0.015
20.446 0.018
20.458 0.020
20.469 0.034
20.480 0.027
20.491 0.017
20.503 0.031
20.514 0.032
20.525 0.021
20.536 0.030
20.548 0.021
20.559 0.026
20.570 0.026
20.581 0.031
20.593 0.028
20.604 0.025
20.615 0.037
20.626 0.037
20.638 0.025
20.649 0.035
20.660 0.042
20.671 0.047
20.683 0.046
20.694 0.059
20.705 0.052
20.716 0.057
20.728 0.064
20.739 0.059
20.750 0.085
20.761 0.092
20.773 0.101
20.784 0.121
20.795 0.120
20.806 0.144
20.818 0.175
20.829 0.184
20.840 0.218
20.851 0.237
20.863 0.276
20.874 0.303
20.885 0.324
20.896 0.348
20.908 0.397
20.919 0.403
20.930 0.450
20.941 0.480
20.953 0.499
20.964 0.525
20.975 0.539
20.986 0.548
20.998 0.553
21.009 0.557
21.020 0.539
21.032 0.528
21.043 0.508
21.054 0.497
21.065 0.462
21.077 0.428
21.088 0.399
21.099 0.371
21.110 0.344
21.122 0.296
21.133 0.291
21.144 0.259
21.155 0.232
21.167 0.198
21.178 0.181
21.189 0.158
21.200 0.132
21.212 0.131
21.223 0.110
21.234 0.101
21.245 0.085
21.257 0.079
21.268 0.068
21.279 0.062
21.290 0.050
21.302 0.061
21.313 0.045
21.324 0.045
21.335 0.028
21.347 0.040
21.358 0.028
21.369 0.041
21.380 0.034
21.392 0.023
21.403 0.032
21.414 0.027
21.425 0.027
21.437 0.025
21.448 0.030
21.459 0.024
21.470 0.039
21.482 0.021
21.493 0.017
21.504 0.018
21.515 0.013
21.527 0.019
21.538 0.026
21.549 0.016
21.560 0.015
21.572 0.016
21.583 0.028
21.594 0.018
21.605 0.007
21.617 0.015
21.628 0.016
21.639 0.011
21.650 0.001
21.662 0.010
21.673 0.014
21.684 0.015
21.695 0.021
21.707 0.012
21.718 0.009
21.729 0.006
21.740 0.022
21.752 0.001
21.763 0.013
21.774 0.005
21.785 0.005
21.797 0.016
21.808 0.019
21.819 0.003
21.830 0.010
21.842 0.002
21.853 0.007
21.864 0.006
21.875 0.020
21.887 0.005
21.898 0.011
21.909 0.017
21.920 0.014
21.932 0.013
21.943 0.013
21.954 0.022
21.965 0.015
21.977 0.011
21.988 0.008
21.999 0.013
22.011 0.010
22.022 0.010
22.033 0.012
22.044 0.014
22.056 0.015
22.067 0.011
22.078 0.002
22.089 0.020
22.101 0.011
22.112 0.005
22.123 0.010
22.134 0.016
22.146 0.003
22.157 0.018
22.168 0.000
22.179 0.025
22.191 0.000
22.202 0.010
22.213 0.010
22.224 0.000
22.236 0.003
22.247 0.010
22.258 0.013
22.269 0.007
22.281 0.006
22.292 0.001
22.303 0.009
22.314 0.012
22.326 0.010
22.337 0.007
22.348 0.013
22.359 0.018
22.371 0.000
22.382 0.007
22.393 0.005
22.404 0.002
22.416 0.012
22.427 0.002
22.438 0.000
22.449 0.011
22.461 0.025
22.472 0.027
22.483 0.009
22.494 0.007
22.506 0.002
22.517 0.010
22.528 0.015
22.539 0.008
22.551 0.005
22.562 0.013
22.573 0.002
22.584 0.002
22.596 0.005
22.607 0.012
22.618 0.008
22.629 0.017
22.641 0.006
22.652 0.000
22.663 0.005
22.674 0.009
22.686 0.013
22.697 0.020
22.708 0.008
22.719 0.003
22.731 0.010
22.742 0.007
22.753 0.013
22.764 0.024
22.776 0.010
22.787 0.016
22.798 0.008
22.809 0.012
22.821 0.010
22.832 0.016
22.843 0.008
22.854 0.002
22.866 0.003
22.877 0.011
22.888 0.002
22.899 0.002
22.911 0.000
22.922 0.006
22.933 0.018
22.944 0.003
22.956 0.011
22.967 0.028
22.978 0.011
22.989 0.005
23.001 0.013
23.012 0.005
23.023 0.007
23.035 0.000
23.046 0.011
23.057 0.014
23.068 0.002
23.080 0.013
23.091 0.000
23.102 0.002
23.113 0.003
23.125 0.008
23.136 0.010
23.147 0.014
23.158 0.013
23.170 0.019
23.181 0.000
23.192 0.007
23.203 0.008
23.215 0.000
23.226 0.006
23.237 0.009
23.248 0.003
23.260 0.020
23.271 0.011
23.282 0.020
23.293 0.005
23.305 0.009
23.316 0.000
23.327 0.006
23.338 0.006
23.350 0.017
23.361 0.017
23.372 0.010
23.383 0.002
23.395 0.012
23.406 0.006
23.417 0.013
23.428 0.018
23.440 0.006
23.451 0.009
23.462 0.016
23.473 0.008
23.485 0.008
23.496 0.010
23.507 0.016
23.518 0.006
23.530 0.002
23.541 0.013
23.552 0.014
23.563 0.021
23.575 0.022
23.586 0.013
23.597 0.010
23.608 0.008
23.620 0.013
23.631 0.015
23.642 0.023
23.653 0.007
23.665 0.015
23.676 0.019
23.687 0.010
23.698 0.011
23.710 0.028
23.721 0.020
23.732 0.020
23.743 0.023
23.755 0.028
23.766 0.018
23.777 0.010
23.788 0.026
23.800 0.027
23.811 0.021
23.822 0.011
23.833 0.039
23.845 0.023
23.856 0.024
23.867 0.027
23.878 0.023
23.890 0.023
23.901 0.021
23.912 0.021
23.923 0.028
23.935 0.026
23.946 0.036
23.957 0.030
23.968 0.036
23.980 0.038
23.991 0.030
24.002 0.037
24.014 0.038
24.025 0.048
24.036 0.040
24.047 0.038
24.059 0.033
24.070 0.042
24.081 0.046
24.092 0.055
24.104 0.042
24.115 0.057
24.126 0.063
24.137 0.063
24.149 0.057
24.160 0.067
24.171 0.075
24.182 0.076
24.194 0.088
24.205 0.088
24.216 0.103
24.227 0.122
24.239 0.132
24.250 0.146
24.261 0.163
24.272 0.176
24.284 0.202
24.295 0.249
24.306 0.264
24.317 0.287
24.329 0.338
24.340 0.377
24.351 0.426
24.362 0.482
24.374 0.532
24.385 0.600
24.396 0.641
24.407 0.704
24.419 0.748
24.430 0.810
24.441 0.865
24.452 0.905
24.464 0.956
24.475 0.952
24.486 0.987
24.497 1.000
24.509 0.997
24.520 0.983
24.531 0.957
24.542 0.911
24.554 0.883
24.565 0.850
24.576 0.787
24.587 0.737
24.599 0.674
24.610 0.618
24.621 0.556
24.632 0.516
24.644 0.453
24.655 0.409
24.666 0.366
24.677 0.312
24.689 0.293
24.700 0.243
24.711 0.220
24.722 0.204
24.734 0.170
24.745 0.166
24.756 0.142
24.767 0.114
24.779 0.113
24.790 0.114
24.801 0.097
24.812 0.082
24.824 0.076
24.835 0.083
24.846 0.064
24.857 0.069
24.869 0.061
24.880 0.045
24.891 0.061
24.902 0.057
24.914 0.060
24.925 0.052
24.936 0.063
24.947 0.044
24.959 0.051
24.970 0.044
24.981 0.047
24.992 0.048
25.004 0.052
25.015 0.059
25.026 0.051
25.038 0.044
25.049 0.045
25.060 0.048
25.071 0.048
25.083 0.045
25.094 0.051
25.105 0.054
25.116 0.048
25.128 0.049
25.139 0.051
25.150 0.047
25.161 0.045
25.173 0.044
25.184 0.058
25.195 0.062
25.206 0.060
25.218 0.071
25.229 0.061
25.240 0.080
25.251 0.089
25.263 0.087
25.274 0.112
25.285 0.112
25.296 0.126
25.308 0.134
25.319 0.157
25.330 0.178
25.341 0.191
25.353 0.206
25.364 0.233
25.375 0.249
25.386 0.282
25.398 0.299
25.409 0.334
25.420 0.361
25.431 0.364
25.443 0.398
25.454 0.430
25.465 0.433
25.476 0.446
25.488 0.469
25.499 0.446
25.510 0.452
25.521 0.451
25.533 0.443
25.544 0.425
25.555 0.403
25.566 0.384
25.578 0.356
25.589 0.326
25.600 0.317
25.611 0.287
25.623 0.255
25.634 0.232
25.645 0.215
25.656 0.186
25.668 0.161
25.679 0.150
25.690 0.141
25.701 0.106
25.713 0.109
25.724 0.088
25.735 0.096
25.746 0.080
25.758 0.078
25.769 0.056
25.780 0.070
25.791 0.046
25.803 0.049
25.814 0.039
25.825 0.029
25.836 0.043
25.848 0.037
25.859 0.026
25.870 0.032
25.881 0.029
25.893 0.020
25.904 0.020
25.915 0.019
25.926 0.020
25.938 0.030
25.949 0.015
25.960 0.028
25.971 0.024
25.983 0.036
25.994 0.013
26.005 0.034
26.017 0.024
26.028 0.013
26.039 0.029
26.050 0.025
26.062 0.015
26.073 0.023
26.084 0.019
26.095 0.006
26.107 0.028
26.118 0.021
26.129 0.011
26.140 0.015
26.152 0.020
26.163 0.024
26.174 0.004
26.185 0.031
26.197 0.005
26.208 0.030
26.219 0.010
26.230 0.027
26.242 0.022
26.253 0.029
26.264 0.006
26.275 0.010
26.287 0.006
26.298 0.024
26.309 0.024
26.320 0.030
26.332 0.019
26.343 0.003
26.354 0.019
26.365 0.009
26.377 0.018
26.388 0.036
26.399 0.017
26.410 0.014
26.422 0.016
26.433 0.010
26.444 0.016
26.455 0.008
26.467 0.026
26.478 0.024
26.489 0.018
26.500 0.015
26.512 0.021
26.523 0.026
26.534 0.030
26.545 0.023
26.557 0.027
26.568 0.026
26.579 0.033
26.590 0.024
26.602 0.023
26.613 0.030
26.624 0.025
26.635 0.042
26.647 0.038
26.658 0.039
26.669 0.029
26.680 0.039
26.692 0.041
26.703 0.043
26.714 0.049
26.725 0.041
26.737 0.061
26.748 0.058
26.759 0.071
26.770 0.066
26.782 0.077
26.793 0.093
26.804 0.101
26.815 0.112
26.827 0.139
26.838 0.141
26.849 0.162
26.860 0.179
26.872 0.192
26.883 0.202
26.894 0.233
26.905 0.265
26.917 0.273
26.928 0.281
26.939 0.302
26.950 0.325
26.962 0.336
26.973 0.347
26.984 0.357
26.995 0.362
27.007 0.364
27.018 0.355
27.029 0.348
27.041 0.329
27.052 0.323
27.063 0.300
27.074 0.291
27.086 0.266
27.097 0.241
27.108 0.248
27.119 0.212
27.131 0.199
27.142 0.180
27.153 0.154
27.164 0.138
27.176 0.136
27.187 0.109
27.198 0.108
27.209 0.093
27.221 0.069
27.232 0.070
27.243 0.068
27.254 0.063
27.266 0.066
27.277 0.058
27.288 0.043
27.299 0.041
27.311 0.040
27.322 0.041
27.333 0.032
27.344 0.043
27.356 0.035
27.367 0.038
27.378 0.037
27.389 0.032
27.401 0.038
27.412 0.038
27.423 0.038
27.434 0.023
27.446 0.041
27.457 0.030
27.468 0.030
27.479 0.045
27.491 0.033
27.502 0.032
27.513 0.037
27.524 0.054
27.536 0.031
27.547 0.028
27.558 0.041
27.569 0.046
27.581 0.049
27.592 0.050
27.603 0.058
27.614 0.051
27.626 0.041
27.637 0.041
27.648 0.043
27.659 0.058
27.671 0.057
27.682 0.063
27.693 0.075
27.704 0.080
27.716 0.088
27.727 0.084
27.738 0.088
27.749 0.116
27.761 0.113
27.772 0.130
27.783 0.151
27.794 0.160
27.806 0.199
27.817 0.211
27.828 0.238
27.839 0.267
27.851 0.302
27.862 0.332
27.873 0.376
27.884 0.407
27.896 0.449
27.907 0.489
27.918 0.530
27.929 0.567
27.941 0.608
27.952 0.627
27.963 0.664
27.974 0.684
27.986 0.694
27.997 0.695
28.008 0.704
28.020 0.689
28.031 0.674
28.042 0.652
28.053 0.621
28.065 0.591
28.076 0.546
28.087 0.513
28.098 0.476
28.110 0.419
28.121 0.393
28.132 0.356
28.143 0.328
28.155 0.287
28.166 0.247
28.177 0.224
28.188 0.193
28.200 0.164
28.211 0.166
28.222 0.132
28.233 0.121
28.245 0.109
28.256 0.095
28.267 0.074
28.278 0.079
28.290 0.066
28.301 0.068
28.312 0.068
28.323 0.050
28.335 0.055
28.346 0.039
28.357 0.063
28.368 0.051
28.380 0.036
28.391 0.052
28.402 0.045
28.413 0.023
28.425 0.025
28.436 0.037
28.447 0.040
28.458 0.023
28.470 0.028
28.481 0.043
28.492 0.020
28.503 0.025
28.515 0.034
28.526 0.020
28.537 0.012
28.548 0.022
28.560 0.023
28.571 0.023
28.582 0.023
28.593 0.035
28.605 0.018
28.616 0.031
28.627 0.023
28.638 0.022
28.650 0.019
28.661 0.009
28.672 0.007
28.683 0.009
28.695 0.005
28.706 0.014
28.717 0.010
28.728 0.007
28.740 0.011
28.751 0.022
28.762 0.011
28.773 0.017
28.785 0.012
28.796 0.021
28.807 0.014
28.818 0.016
28.830 0.010
28.841 0.010
28.852 0.005
28.863 0.005
28.875 0.010
28.886 0.008
28.897 0.013
28.908 0.015
28.920 0.019
28.931 0.004
28.942 0.028
28.953 0.009
28.965 0.015
28.976 0.008
28.987 0.009
28.998 0.005
29.010 0.010
29.021 0.015
29.032 0.012
29.044 0.000
29.055 0.013
29.066 0.011
29.077 0.011
29.089 0.010
29.100 0.000
29.111 0.001
29.122 0.018
29.134 0.010
29.145 0.008
29.156 0.011
29.167 0.010
29.179 0.026
29.190 0.009
29.201 0.018
29.212 0.012
29.224 0.009
29.235 0.002
29.246 0.000
29.257 0.004
29.269 0.007
29.280 0.000
29.291 0.006
29.302 0.005
29.314 0.015
29.325 0.010
29.336 0.000
29.347 0.018
29.359 0.001
29.370 0.005
29.381 0.008
29.392 0.004
29.404 0.002
29.415 0.005
29.426 0.013
29.437 0.008
29.449 0.008
29.460 0.000
29.471 0.009
29.482 0.001
29.494 0.006
29.505 0.014
29.516 0.015
29.527 0.013
29.539 0.007
29.550 0.015
29.561 0.005
29.572 0.004
29.584 0.019
29.595 0.016
29.606 0.005
29.617 0.000
29.629 0.016
29.640 0.010
29.651 0.013
29.662 0.000
29.674 0.000
29.685 0.013
29.696 0.001
29.707 0.008
29.719 0.006
29.730 0.012
29.741 0.001
29.752 0.000
29.764 0.011
29.775 0.000
29.786 0.004
29.797 0.008
29.809 0.013
29.820 0.010
29.831 0.007
29.842 0.011
29.854 0.006
29.865 0.017
29.876 0.000
29.887 0.011
29.899 0.009
29.910 0.005
29.921 0.000
29.932 0.008
29.944 0.006
29.955 0.005
29.966 0.012
29.977 0.007
29.989 0.005
30.000 0.000
30.011 0.001
30.023 0.012
30.034 0.003
30.045 0.000
30.056 0.005
30.068 0.006
30.079 0.009
30.090 0.000
30.101 0.010
30.113 0.000
30.124 0.021
30.135 0.005
30.146 0.010
30.158 0.005
30.169 0.005
30.180 0.004
30.191 0.012
30.203 0.000
30.214 0.010
30.225 0.002
30.236 0.000
30.248 0.015
30.259 0.016
30.270 0.010
30.281 0.016
30.293 0.000
30.304 0.010
30.315 0.011
30.326 0.024
30.338 0.008
30.349 0.018
30.360 0.020
30.371 0.017
30.383 0.004
30.394 0.000
30.405 0.000
30.416 0.000
30.428 0.020
30.439 0.006
30.450 0.013
30.461 0.016
30.473 0.012
30.484 0.012
30.495 0.014
30.506 0.013
30.518 0.008
30.529 0.014
30.540 0.008
30.551 0.017
30.563 0.024
30.574 0.007
30.585 0.021
30.596 0.018
30.608 0.013
30.619 0.028
30.630 0.020
30.641 0.001
30.653 0.021
30.664 0.024
30.675 0.026
30.686 0.029
30.698 0.031
30.709 0.022
30.720 0.037
30.731 0.034
30.743 0.045
30.754 0.034
30.765 0.049
30.776 0.061
30.788 0.074
30.799 0.082
30.810 0.087
30.821 0.091
30.833 0.104
30.844 0.125
30.855 0.137
30.866 0.163
30.878 0.179
30.889 0.172
30.900 0.210
30.911 0.236
30.923 0.237
30.934 0.256
30.945 0.258
30.956 0.276
30.968 0.285
30.979 0.296
30.990 0.302
31.002 0.296
31.013 0.303
31.024 0.297
31.035 0.278
31.047 0.281
31.058 0.266
31.069 0.252
31.080 0.236
31.092 0.209
31.103 0.180
31.114 0.166
31.125 0.164
31.137 0.143
31.148 0.143
31.159 0.126
31.170 0.120
31.182 0.096
31.193 0.093
31.204 0.079
31.215 0.058
31.227 0.040
31.238 0.056
31.249 0.036
31.260 0.047
31.272 0.025
31.283 0.032
31.294 0.039
31.305 0.033
31.317 0.031
31.328 0.022
31.339 0.022
31.350 0.022
31.362 0.019
31.373 0.027
31.384 0.024
31.395 0.025
31.407 0.013
31.418 0.019
31.429 0.020
31.440 0.018
31.452 0.006
31.463 0.024
31.474 0.013
31.485 0.010
31.497 0.017
31.508 0.015
31.519 0.013
31.530 0.024
31.542 0.017
31.553 0.004
31.564 0.015
31.575 0.013
31.587 0.015
31.598 0.011
31.609 0.020
31.620 0.006
31.632 0.007
31.643 0.009
31.654 0.019
31.665 0.012
31.677 0.008
31.688 0.006
31.699 0.013
31.710 0.000
31.722 0.004
31.733 0.001
31.744 0.007
31.755 0.005
31.767 0.014
31.778 0.005
31.789 0.002
31.800 0.005
31.812 0.008
31.823 0.010
31.834 0.008
31.845 0.002
31.857 0.010
31.868 0.008
31.879 0.009
31.890 0.000
31.902 0.003
31.913 0.003
31.924 0.000
31.935 0.003
31.947 0.013
31.958 0.014
31.969 0.007
31.980 0.004
31.992 0.007
32.003 0.002
32.014 0.004
32.026 0.000
32.037 0.016
32.048 0.007
32.059 0.014
32.071 0.002
32.082 0.004
32.093 0.002
32.104 0.000
32.116 0.012
32.127 0.009
32.138 0.011
32.149 0.004
32.161 0.006
32.172 0.009
32.183 0.009
32.194 0.007
32.206 0.015
32.217 0.014
32.228 0.008
32.239 0.016
32.251 0.001
32.262 0.003
32.273 0.006
32.284 0.004
32.296 0.000
32.307 0.010
32.318 0.019
32.329 0.005
32.341 0.007
32.352 0.000
32.363 0.002
32.374 0.003
32.386 0.024
32.397 0.005
32.408 0.009
32.419 0.014
32.431 0.000
32.442 0.006
32.453 0.004
32.464 0.008
32.476 0.001
32.487 0.008
32.498 0.009
32.509 0.002
32.521 0.000
32.532 0.011
32.543 0.005
32.554 0.000
32.566 0.003
32.577 0.001
32.588 0.003
32.599 0.000
32.611 0.014
32.622 0.004
32.633 0.002
32.644 0.003
32.656 0.000
32.667 0.013
32.678 0.000
32.689 0.000
32.701 0.005
32.712 0.006
32.723 0.021
32.734 0.009
32.746 0.000
32.757 0.003
32.768 0.004
32.779 0.001
32.791 0.011
32.802 0.010
32.813 0.000
32.824 0.007
32.836 0.013
32.847 0.002
32.858 0.014
32.869 0.002
32.881 0.000
32.892 0.000
32.903 0.010
32.914 0.001
32.926 0.001
32.937 0.006
32.948 0.014
32.959 0.005
32.971 0.013
32.982 0.006
32.993 0.002
33.005 0.001
33.016 0.009
33.027 0.006
33.038 0.004
33.050 0.003
33.061 0.009
33.072 0.005
33.083 0.000
33.095 0.002
33.106 0.010
33.117 0.004
33.128 0.015
33.140 0.011
33.151 0.017
33.162 0.000
33.173 0.005
33.185 0.000
33.196 0.002
33.207 0.007
33.218 0.001
33.230 0.004
33.241 0.000
33.252 0.008
33.263 0.006
33.275 0.005
33.286 0.003
33.297 0.007
33.308 0.019
33.320 0.013
33.331 0.010
33.342 0.005
33.353 0.002
33.365 0.010
33.376 0.003
33.387 0.014
33.398 0.015
33.410 0.011
33.421 0.011
33.432 0.001
33.443 0.011
33.455 0.001
33.466 0.000
33.477 0.017
33.488 0.007
33.500 0.000
33.511 0.000
33.522 0.010
33.533 0.010
33.545 0.012
33.556 0.008
33.567 0.021
33.578 0.010
33.590 0.004
33.601 0.006
33.612 0.009
33.623 0.017
33.635 0.009
33.646 0.017
33.657 0.004
33.668 0.010
33.680 0.019
33.691 0.016
33.702 0.015
33.713 0.026
33.725 0.023
33.736 0.021
33.747 0.022
33.758 0.042
33.770 0.039
33.781 0.036
33.792 0.043
33.803 0.048
33.815 0.064
33.826 0.058
33.837 0.063
33.848 0.072
33.860 0.091
33.871 0.098
33.882 0.097
33.893 0.111
33.905 0.135
33.916 0.136
33.927 0.150
33.938 0.149
33.950 0.174
33.961 0.173
33.972 0.181
33.983 0.156
33.995 0.185
34.006 0.180
34.017 0.193
34.029 0.169
34.040 0.187
34.051 0.161
34.062 0.158
34.074 0.144
34.085 0.137
34.096 0.116
34.107 0.120
34.119 0.108
34.130 0.095
34.141 0.085
34.152 0.056
34.164 0.061
34.175 0.045
34.186 0.057
34.197 0.039
34.209 0.046
34.220 0.041
34.231 0.041
34.242 0.034
34.254 0.025
34.265 0.025
34.276 0.023
34.287 0.039
34.299 0.018
34.310 0.018
34.321 0.020
34.332 0.010
34.344 0.009
34.355 0.018
34.366 0.019
34.377 0.020
34.389 0.001
34.400 0.017
34.411 0.006
34.422 0.014
34.434 0.009
34.445 0.009
34.456 0.005
34.467 0.017
34.479 0.015
34.490 0.008
34.501 0.008
34.512 0.002
34.524 0.003
34.535 0.015
34.546 0.003
34.557 0.000
34.569 0.014
34.580 0.005
34.591 0.004
34.602 0.015
34.614 0.011
34.625 0.000
34.636 0.001
34.647 0.006
34.659 0.004
34.670 0.011
34.681 0.001
34.692 0.008
34.704 0.015
34.715 0.000
34.726 0.012
34.737 0.002
34.749 0.000
34.760 0.001
34.771 0.003
34.782 0.000
34.794 0.009
34.805 0.005
34.816 0.003
34.827 0.000
34.839 0.009
34.850 0.006
34.861 0.002
34.872 0.010
34.884 0.004
34.895 0.012
34.906 0.007
34.917 0.001
34.929 0.003
34.940 0.000
34.951 0.002
34.962 0.005
34.974 0.004
34.985 0.000
34.996 0.006
35.008 0.006
35.019 0.002
35.030 0.005
35.041 0.007
35.053 0.006
35.064 0.000
35.075 0.000
35.086 0.000
35.098 0.002
35.109 0.002
35.120 0.001
35.131 0.013
35.143 0.015
35.154 0.000
35.165 0.018
35.176 0.009
35.188 0.009
35.199 0.006
35.210 0.003
35.221 0.004
35.233 0.003
35.244 0.000
35.255 0.002
35.266 0.000
35.278 0.010
35.289 0.007
35.300 0.000
35.311 0.003
35.323 0.000
35.334 0.008
35.345 0.012
35.356 0.000
35.368 0.009
35.379 0.004
35.390 0.010
35.401 0.007
35.413 0.005
35.424 0.000
35.435 0.004
35.446 0.002
35.458 0.000
35.469 0.002
35.480 0.002
35.491 0.003
35.503 0.000
35.514 0.000
35.525 0.003
35.536 0.010
35.548 0.001
35.559 0.013
35.570 0.006
35.581 0.000
35.593 0.000
35.604 0.017
35.615 0.000
35.626 0.003
35.638 0.005
35.649 0.000
35.660 0.007
35.671 0.011
35.683 0.010
35.694 0.001
35.705 0.008
35.716 0.001
35.728 0.000
35.739 0.000
35.750 0.003
35.761 0.012
35.773 0.022
35.784 0.000
35.795 0.000
35.806 0.009
35.818 0.000
35.829 0.012
35.840 0.006
35.851 0.010
35.863 0.015
35.874 0.004
35.885 0.013
35.896 0.000
35.908 0.013
35.919 0.003
35.930 0.004
35.941 0.000
35.953 0.016
35.964 0.006
35.975 0.010
35.986 0.004
35.998 0.000
36.009 0.000
36.020 0.009
36.032 0.000
36.043 0.002
36.054 0.001
36.065 0.005
36.077 0.012
36.088 0.000
36.099 0.001
36.110 0.006
36.122 0.000
36.133 0.012
36.144 0.017
36.155 0.000
36.167 0.006
36.178 0.001
36.189 0.004
36.200 0.000
36.212 0.000
36.223 0.003
36.234 0.012
36.245 0.006
36.257 0.020
36.268 0.004
36.279 0.007
36.290 0.015
36.302 0.004
36.313 0.008
36.324 0.011
36.335 0.003
36.347 0.018
36.358 0.005
36.369 0.008
36.380 0.002
36.392 0.012
36.403 0.000
36.414 0.000
36.425 0.008
36.437 0.011
36.448 0.006
36.459 0.011
36.470 0.015
36.482 0.007
36.493 0.007
36.504 0.024
36.515 0.012
36.527 0.015
36.538 0.013
36.549 0.006
36.560 0.000
36.572 0.000
36.583 0.005
36.594 0.002
36.605 0.012
36.617 0.015
36.628 0.008
36.639 0.004
36.650 0.000
36.662 0.000
36.673 0.016
36.684 0.000
36.695 0.004
36.707 0.000
36.718 0.002
36.729 0.001
36.740 0.007
36.752 0.006
36.763 0.004
36.774 0.010
36.785 0.004
36.797 0.000
36.808 0.002
36.819 0.008
36.830 0.000
36.842 0.000
36.853 0.001
36.864 0.006
36.875 0.000
36.887 0.000
36.898 0.009
36.909 0.004
36.920 0.020
36.932 0.003
36.943 0.002
36.954 0.007
36.965 0.006
36.977 0.006
36.988 0.000
36.999 0.022
37.011 0.001
37.022 0.009
37.033 0.008
37.044 0.006
37.056 0.000
37.067 0.002
37.078 0.000
37.089 0.011
37.101 0.000
37.112 0.011
37.123 0.009
37.134 0.013
37.146 0.005
37.157 0.012
37.168 0.007
37.179 0.004
37.191 0.003
37.202 0.013
37.213 0.002
37.224 0.006
37.236 0.004
37.247 0.018
37.258 0.013
37.269 0.000
37.281 0.010
37.292 0.004
37.303 0.003
37.314 0.013
37.326 0.009
37.337 0.012
37.348 0.020
37.359 0.011
37.371 0.013
37.382 0.003
37.393 0.017
37.404 0.014
37.416 0.002
37.427 0.014
37.438 0.013
37.449 0.012
37.461 0.009
37.472 0.014
37.483 0.017
37.494 0.003
37.506 0.019
37.517 0.013
37.528 0.029
37.539 0.022
37.551 0.011
37.562 0.012
37.573 0.019
37.584 0.016
37.596 0.019
37.607 0.020
37.618 0.026
37.629 0.017
37.641 0.022
37.652 0.037
37.663 0.024
37.674 0.039
37.686 0.031
37.697 0.030
37.708 0.026
37.719 0.043
37.731 0.040
37.742 0.047
37.753 0.051
37.764 0.061
37.776 0.074
37.787 0.073
37.798 0.085
37.809 0.106
37.821 0.100
37.832 0.132
37.843 0.156
37.854 0.156
37.866 0.183
37.877 0.185
37.888 0.207
37.899 0.229
37.911 0.253
37.922 0.272
37.933 0.295
37.944 0.310
37.956 0.314
37.967 0.336
37.978 0.344
37.989 0.347
38.001 0.352
38.012 0.342
38.023 0.340
38.035 0.332
38.046 0.323
38.057 0.301
38.068 0.283
38.080 0.272
38.091 0.268
38.102 0.239
38.113 0.211
38.125 0.170
38.136 0.172
38.147 0.157
38.158 0.142
38.170 0.118
38.181 0.099
38.192 0.096
38.203 0.088
38.215 0.083
38.226 0.068
38.237 0.052
38.248 0.056
38.260 0.047
38.271 0.053
38.282 0.023
38.293 0.032
38.305 0.028
38.316 0.044
38.327 0.015
38.338 0.031
38.350 0.026
38.361 0.021
38.372 0.017
38.383 0.022
38.395 0.019
38.406 0.007
38.417 0.013
38.428 0.004
38.440 0.026
38.451 0.017
38.462 0.010
38.473 0.025
38.485 0.014
38.496 0.023
38.507 0.018
38.518 0.014
38.530 0.010
38.541 0.019
38.552 0.010
38.563 0.002
38.575 0.007
38.586 0.007
38.597 0.010
38.608 0.016
38.620 0.008
38.631 0.009
38.642 0.003
38.653 0.000
38.665 0.026
38.676 0.011
38.687 0.010
38.698 0.020
38.710 0.003
38.721 0.016
38.732 0.000
38.743 0.011
38.755 0.018
38.766 0.008
38.777 0.001
38.788 0.007
38.800 0.009
38.811 0.014
38.822 0.015
38.833 0.003
38.845 0.000
38.856 0.014
38.867 0.000
38.878 0.002
38.890 0.012
38.901 0.007
38.912 0.001
38.923 0.000
38.935 0.000
38.946 0.010
38.957 0.000
38.968 0.000
38.980 0.000
38.991 0.013
39.002 0.000
39.014 0.012
39.025 0.000
39.036 0.007
39.047 0.000
39.059 0.002
39.070 0.009
39.081 0.003
39.092 0.000
39.104 0.003
39.115 0.000
39.126 0.002
39.137 0.010
39.149 0.010
39.160 0.018
39.171 0.000
39.182 0.000
39.194 0.011
39.205 0.000
39.216 0.009
39.227 0.000
39.239 0.007
39.250 0.002
39.261 0.011
39.272 0.000
39.284 0.003
39.295 0.002
39.306 0.000
39.317 0.001
39.329 0.013
39.340 0.002
39.351 0.000
39.362 0.005
39.374 0.000
39.385 0.007
39.396 0.001
39.407 0.000
39.419 0.011
39.430 0.001
39.441 0.000
39.452 0.002
39.464 0.002
39.475 0.014
39.486 0.000
39.497 0.004
39.509 0.002
39.520 0.005
39.531 0.008
39.542 0.012
39.554 0.011
39.565 0.000
39.576 0.000
39.587 0.000
39.599 0.001
39.610 0.010
39.621 0.009
39.632 0.006
39.644 0.004
39.655 0.000
39.666 0.002
39.677 0.004
39.689 0.011
39.700 0.000
39.711 0.000
39.722 0.013
39.734 0.000
39.745 0.000
39.756 0.002
39.767 0.007
39.779 0.002
39.790 0.013
39.801 0.000
39.812 0.016
39.824 0.014
39.835 0.000
39.846 0.000
39.857 0.001
39.869 0.000
39.880 0.009
39.891 0.003
39.902 0.000
39.914 0.016
39.925 0.007
39.936 0.006
39.947 0.000
39.959 0.014
39.970 0.014
39.981 0.000
39.992 0.000
40.004 0.009
40.015 0.010
40.026 0.013
40.038 0.003
40.049 0.001
40.060 0.007
40.071 0.010
40.083 0.000
40.094 0.008
40.105 0.008
40.116 0.011
40.128 0.007
40.139 0.001
40.150 0.000
40.161 0.000
40.173 0.010
40.184 0.009
40.195 0.021
40.206 0.000
40.218 0.021
40.229 0.000
40.240 0.008
40.251 0.006
40.263 0.012
40.274 0.012
40.285 0.010
40.296 0.010
40.308 0.004
40.319 0.007
40.330 0.019
40.341 0.013
40.353 0.009
40.364 0.001
40.375 0.000
40.386 0.007
40.398 0.000
40.409 0.018
40.420 0.000
40.431 0.012
40.443 0.011
40.454 0.018
40.465 0.000
40.476 0.002
40.488 0.011
40.499 0.002
40.510 0.013
40.521 0.014
40.533 0.022
40.544 0.006
40.555 0.021
40.566 0.014
40.578 0.027
40.589 0.016
40.600 0.013
40.611 0.027
40.623 0.020
40.634 0.016
40.645 0.005
40.656 0.012
40.668 0.024
40.679 0.027
40.690 0.012
40.701 0.021
40.713 0.023
40.724 0.032
40.735 0.040
40.746 0.036
40.758 0.035
40.769 0.055
40.780 0.058
40.791 0.055
40.803 0.062
40.814 0.063
40.825 0.086
40.836 0.098
40.848 0.101
40.859 0.129
40.870 0.127
40.881 0.151
40.893 0.164
40.904 0.166
40.915 0.189
40.926 0.194
40.938 0.222
40.949 0.217
40.960 0.241
40.971 0.232
40.983 0.261
40.994 0.251
41.005 0.246
41.017 0.252
41.028 0.238
41.039 0.235
41.050 0.215
41.062 0.211
41.073 0.200
41.084 0.180
41.095 0.162
41.107 0.162
41.118 0.153
41.129 0.123
41.140 0.115
41.152 0.104
41.163 0.090
41.174 0.086
41.185 0.069
41.197 0.059
41.208 0.049
41.219 0.053
41.230 0.049
41.242 0.055
41.253 0.038
41.264 0.045
41.275 0.025
41.287 0.034
41.298 0.020
41.309 0.024
41.320 0.016
41.332 0.008
41.343 0.013
41.354 0.024
41.365 0.022
41.377 0.018
41.388 0.005
41.399 0.005
41.410 0.011
41.422 0.000
41.433 0.028
41.444 0.009
41.455 0.020
41.467 0.016
41.478 0.003
41.489 0.005
41.500 0.004
41.512 0.008
41.523 0.013
41.534 0.006
41.545 0.012
41.557 0.017
41.568 0.000
41.579 0.000
41.590 0.000
41.602 0.000
41.613 0.002
41.624 0.001
41.635 0.007
41.647 0.003
41.658 0.006
41.669 0.005
41.680 0.012
41.692 0.000
41.703 0.021
41.714 0.008
41.725 0.015
41.737 0.014
41.748 0.001
41.759 0.013
41.770 0.000
41.782 0.006
41.793 0.008
41.804 0.008
41.815 0.001
41.827 0.000
41.838 0.005
41.849 0.000
41.860 0.005
41.872 0.007
41.883 0.004
41.894 0.000
41.905 0.002
41.917 0.002
41.928 0.007
41.939 0.009
41.950 0.008
41.962 0.003
41.973 0.010
41.984 0.000
41.995 0.010
42.007 0.000
42.018 0.005
42.029 0.000
42.041 0.000
42.052 0.008
42.063 0.003
42.074 0.000
42.086 0.000
42.097 0.004
42.108 0.000
42.119 0.007
42.131 0.002
42.142 0.011
42.153 0.012
42.164 0.000
42.176 0.008
42.187 0.001
42.198 0.009
42.209 0.007
42.221 0.003
42.232 0.008
42.243 0.001
42.254 0.010
42.266 0.002
42.277 0.008
42.288 0.000
42.299 0.009
42.311 0.008
42.322 0.000
42.333 0.008
42.344 0.000
42.356 0.010
42.367 0.003
42.378 0.000
42.389 0.015
42.401 0.000
42.412 0.019
42.423 0.000
42.434 0.000
42.446 0.004
42.457 0.009
42.468 0.000
42.479 0.004
42.491 0.001
42.502 0.015
42.513 0.000
42.524 0.001
42.536 0.005
42.547 0.008
42.558 0.005
42.569 0.003
42.581 0.000
42.592 0.001
42.603 0.000
42.614 0.000
42.626 0.012
42.637 0.005
42.648 0.000
42.659 0.010
42.671 0.001
42.682 0.005
42.693 0.000
42.704 0.017
42.716 0.007
42.727 0.000
42.738 0.007
42.749 0.012
42.761 0.000
42.772 0.005
42.783 0.000
42.794 0.000
42.806 0.001
42.817 0.000
42.828 0.000
42.839 0.010
42.851 0.000
42.862 0.007
42.873 0.000
42.884 0.007
42.896 0.007
42.907 0.000
42.918 0.000
42.929 0.000
42.941 0.013
42.952 0.000
42.963 0.003
42.974 0.010
42.986 0.016
42.997 0.000
43.008 0.005
43.020 0.001
43.031 0.009
43.042 0.002
43.053 0.000
43.065 0.000
43.076 0.012
43.087 0.000
43.098 0.004
43.110 0.000
43.121 0.005
43.132 0.000
43.143 0.000
43.155 0.003
43.166 0.001
43.177 0.000
43.188 0.009
43.200 0.024
43.211 0.003
43.222 0.001
43.233 0.014
43.245 0.010
43.256 0.013
43.267 0.005
43.278 0.009
43.290 0.026
43.301 0.008
43.312 0.000
43.323 0.011
43.335 0.001
43.346 0.019
43.357 0.000
43.368 0.016
43.380 0.008
43.391 0.001
43.402 0.007
43.413 0.000
43.425 0.017
43.436 0.007
43.447 0.000
43.458 0.016
43.470 0.006
43.481 0.000
43.492 0.000
43.503 0.000
43.515 0.011
43.526 0.001
43.537 0.011
43.548 0.003
43.560 0.004
43.571 0.015
43.582 0.000
43.593 0.009
43.605 0.005
43.616 0.002
43.627 0.000
43.638 0.000
43.650 0.000
43.661 0.000
43.672 0.011
43.683 0.006
43.695 0.004
43.706 0.000
43.717 0.005
43.728 0.005
43.740 0.000
43.751 0.001
43.762 0.013
43.773 0.000
43.785 0.000
43.796 0.023
43.807 0.003
43.818 0.002
43.830 0.012
43.841 0.000
43.852 0.004
43.863 0.000
43.875 0.000
43.886 0.007
43.897 0.000
43.908 0.009
43.920 0.000
43.931 0.000
43.942 0.007
43.953 0.000
43.965 0.000
43.976 0.000
43.987 0.003
43.998 0.001
44.010 0.000
44.021 0.004
44.032 0.000
44.044 0.008
44.055 0.004
44.066 0.000
44.077 0.002
44.089 0.004
44.100 0.000
44.111 0.000
44.122 0.018
44.134 0.000
44.145 0.000
44.156 0.007
44.167 0.009
44.179 0.000
44.190 0.000
44.201 0.007
44.212 0.005
44.224 0.003
44.235 0.002
44.246 0.006
44.257 0.004
44.269 0.001
44.280 0.000
44.291 0.000
44.302 0.001
44.314 0.003
44.325 0.006
44.336 0.004
44.347 0.002
44.359 0.011
44.370 0.000
44.381 0.011
44.392 0.000
44.404 0.000
44.415 0.000
44.426 0.000
44.437 0.014
44.449 0.004
44.460 0.000
44.471 0.008
44.482 0.000
44.494 0.000
44.505 0.000
44.516 0.002
44.527 0.011
44.539 0.014
44.550 0.005
44.561 0.004
44.572 0.000
44.584 0.004
44.595 0.004
44.606 0.000
44.617 0.004
44.629 0.000
44.640 0.000
44.651 0.004
44.662 0.006
44.674 0.000
44.685 0.008
44.696 0.000
44.707 0.000
44.719 0.000
44.730 0.008
44.741 0.007
44.752 0.000
44.764 0.005
44.775 0.003
44.786 0.000
44.797 0.012
44.809 0.005
44.820 0.005
44.831 0.000
44.842 0.000
44.854 0.010
44.865 0.008
44.876 0.005
44.887 0.015
44.899 0.002
44.910 0.000
44.921 0.000
44.932 0.002
44.944 0.000
44.955 0.000
44.966 0.002
44.977 0.009
44.989 0.008
45.000 0.003
